 #  Results from PENEPMA.
 #  Probability of emission of bremmstrahlung photons.
 #  1st column: E (eV).
 #  2nd and 3rd columns: probability density and STU (1/(eV*sr*electron)).

   1.125000E+02  5.037666E-07  1.391040E-09
   1.275000E+02  4.359720E-07  1.289730E-09
   1.425000E+02  3.834252E-07  1.203702E-09
   1.575000E+02  3.406804E-07  1.067901E-09
   1.725000E+02  3.064638E-07  9.898018E-10
   1.875000E+02  2.789318E-07  9.769091E-10
   2.025000E+02  2.552897E-07  9.136930E-10
   2.175000E+02  2.353437E-07  8.804555E-10
   2.325000E+02  2.176082E-07  8.170233E-10
   2.475000E+02  2.030989E-07  8.079359E-10
   2.625000E+02  1.894571E-07  7.430952E-10
   2.775000E+02  1.780429E-07  7.106304E-10
   2.925000E+02  1.677154E-07  6.850666E-10
   3.075000E+02  1.585262E-07  6.459930E-10
   3.225000E+02  1.499323E-07  5.951848E-10
   3.375000E+02  1.421298E-07  5.466576E-10
   3.525000E+02  1.360230E-07  6.094168E-10
   3.675000E+02  1.290720E-07  4.991253E-10
   3.825000E+02  1.233956E-07  4.969726E-10
   3.975000E+02  1.181966E-07  4.577596E-10
   4.125000E+02  1.133518E-07  4.538727E-10
   4.275000E+02  1.086358E-07  3.943139E-10
   4.425000E+02  1.046819E-07  4.201606E-10
   4.575000E+02  1.006341E-07  3.658670E-10
   4.725000E+02  9.713292E-08  3.742304E-10
   4.875000E+02  9.359524E-08  3.182782E-10
   5.025001E+02  9.045019E-08  2.951606E-10
   5.175001E+02  8.722967E-08  2.766118E-10
   5.325001E+02  8.465145E-08  2.749894E-10
   5.475001E+02  8.210804E-08  2.518616E-10
   5.625001E+02  7.951882E-08  2.263851E-10
   5.775001E+02  7.720639E-08  2.406586E-10
   5.925001E+02  7.508306E-08  2.351300E-10
   6.075001E+02  7.295687E-08  2.252212E-10
   6.225001E+02  7.100641E-08  2.194746E-10
   6.375001E+02  6.922747E-08  2.384597E-10
   6.525001E+02  6.742866E-08  2.448802E-10
   6.675001E+02  6.565895E-08  2.511308E-10
   6.825001E+02  6.422397E-08  2.538014E-10
   6.975001E+02  6.242460E-08  2.208830E-10
   7.125001E+02  6.096239E-08  1.972269E-10
   7.275001E+02  5.959157E-08  2.141674E-10
   7.425001E+02  5.818688E-08  2.040326E-10
   7.575001E+02  5.689300E-08  2.119068E-10
   7.725001E+02  5.566755E-08  2.279237E-10
   7.875001E+02  5.441029E-08  2.007129E-10
   8.025001E+02  5.331839E-08  1.996707E-10
   8.175001E+02  5.214098E-08  1.787380E-10
   8.325001E+02  5.112044E-08  2.068889E-10
   8.475001E+02  5.013064E-08  2.105454E-10
   8.625001E+02  4.921412E-08  2.052580E-10
   8.775001E+02  4.812017E-08  1.849866E-10
   8.925001E+02  4.716351E-08  1.789420E-10
   9.075001E+02  4.619336E-08  1.779166E-10
   9.225001E+02  4.529439E-08  1.417896E-10
   9.375001E+02  4.464820E-08  1.867151E-10
   9.525001E+02  4.375262E-08  1.644169E-10
   9.675001E+02  4.299055E-08  1.635560E-10
   9.825001E+02  4.219208E-08  1.626662E-10
   9.975001E+02  4.148648E-08  1.730801E-10
   1.012500E+03  4.071088E-08  1.489304E-10
   1.027500E+03  4.012431E-08  1.716358E-10
   1.042500E+03  3.934241E-08  1.535060E-10
   1.057500E+03  3.876838E-08  1.588757E-10
   1.072500E+03  3.813600E-08  1.520285E-10
   1.087500E+03  3.759074E-08  1.689580E-10
   1.102500E+03  3.682108E-08  1.374861E-10
   1.117500E+03  3.631995E-08  1.560068E-10
   1.132500E+03  3.567963E-08  1.359705E-10
   1.147500E+03  3.517522E-08  1.420220E-10
   1.162500E+03  3.471174E-08  1.600804E-10
   1.177500E+03  3.414002E-08  1.472405E-10
   1.192500E+03  3.362559E-08  1.400756E-10
   1.207500E+03  3.313353E-08  1.252953E-10
   1.222500E+03  3.271069E-08  1.578304E-10
   1.237500E+03  3.220311E-08  1.382430E-10
   1.252500E+03  3.166375E-08  1.153299E-10
   1.267500E+03  3.125614E-08  1.146395E-10
   1.282500E+03  3.088386E-08  1.364678E-10
   1.297500E+03  3.036153E-08  1.132233E-10
   1.312500E+03  2.996715E-08  1.126077E-10
   1.327500E+03  2.961666E-08  1.348288E-10
   1.342500E+03  2.919599E-08  1.194597E-10
   1.357500E+03  2.876574E-08  1.106453E-10
   1.372500E+03  2.836838E-08  1.011411E-10
   1.387500E+03  2.809282E-08  1.177713E-10
   1.402500E+03  2.764868E-08  9.984668E-11
   1.417500E+03  2.735031E-08  9.928354E-11
   1.432500E+03  2.700276E-08  1.161252E-10
   1.447500E+03  2.663411E-08  1.071439E-10
   1.462500E+03  2.628617E-08  1.065470E-10
   1.477500E+03  2.601140E-08  9.686043E-11
   1.492500E+03  2.559825E-08  1.053386E-10
   1.507500E+03  2.534582E-08  9.556873E-11
   1.522500E+03  2.503402E-08  9.498658E-11
   1.537500E+03  2.473826E-08  1.038988E-10
   1.552500E+03  2.447523E-08  1.121259E-10
   1.567500E+03  2.419942E-08  1.029956E-10
   1.582500E+03  2.386646E-08  9.275850E-11
   1.597500E+03  2.366443E-08  1.020088E-10
   1.612500E+03  2.339450E-08  9.186131E-11
   1.627500E+03  2.308265E-08  9.122641E-11
   1.642500E+03  2.280246E-08  9.067275E-11
   1.657500E+03  2.250865E-08  9.008134E-11
   1.672500E+03  2.228350E-08  8.961207E-11
   1.687500E+03  2.208217E-08  8.921769E-11
   1.702500E+03  2.174362E-08  8.852574E-11
   1.717500E+03  2.157063E-08  8.815990E-11
   1.732500E+03  2.131428E-08  9.772944E-11
   1.747500E+03  2.112898E-08  9.741248E-11
   1.762500E+03  2.091213E-08  8.681819E-11
   1.777500E+03  2.064729E-08  8.627238E-11
   1.792500E+03  2.046819E-08  8.590104E-11
   1.807500E+03  2.022681E-08  8.537915E-11
   1.822500E+03  2.003519E-08  8.498700E-11
   1.837500E+03  1.980409E-08  8.448223E-11
   1.852500E+03  1.963849E-08  8.412382E-11
   1.867500E+03  1.943149E-08  8.369356E-11
   1.882500E+03  1.924771E-08  8.328440E-11
   1.897500E+03  1.907500E-08  8.291949E-11
   1.912500E+03  1.882798E-08  8.237055E-11
   1.927500E+03  1.863797E-08  8.196867E-11
   1.942500E+03  1.850099E-08  8.163872E-11
   1.957500E+03  1.828779E-08  8.121489E-11
   1.972500E+03  1.814282E-08  8.087671E-11
   1.987500E+03  1.798230E-08  8.048456E-11
   2.002500E+03  1.778067E-08  9.098620E-11
   2.017500E+03  1.765187E-08  7.975673E-11
   2.032500E+03  1.748559E-08  1.002340E-10
   2.047500E+03  1.728407E-08  7.892980E-11
   2.062500E+03  1.715149E-08  7.858558E-11
   2.077500E+03  1.697594E-08  7.820290E-11
   2.092500E+03  1.677637E-08  7.774407E-11
   2.107500E+03  1.669237E-08  8.878820E-11
   2.122500E+03  1.650294E-08  7.711570E-11
   2.137500E+03  1.633714E-08  7.671396E-11
   2.152500E+03  1.620488E-08  7.640472E-11
   2.167500E+03  1.605872E-08  7.605614E-11
   2.182500E+03  1.594248E-08  7.577482E-11
   2.197500E+03  1.575876E-08  8.695432E-11
   2.212500E+03  1.565086E-08  7.509558E-11
   2.227500E+03  1.545849E-08  7.462481E-11
   2.242500E+03  1.532011E-08  7.429077E-11
   2.257500E+03  1.522934E-08  7.408868E-11
   2.272500E+03  1.508589E-08  7.373095E-11
   2.287500E+03  1.494376E-08  7.337799E-11
   2.302500E+03  1.490794E-08  7.327757E-11
   2.317500E+03  1.469035E-08  7.275507E-11
   2.332500E+03  1.454514E-08  7.237771E-11
   2.347500E+03  1.447947E-08  7.222310E-11
   2.362500E+03  1.436651E-08  7.192974E-11
   2.377500E+03  1.423293E-08  7.160202E-11
   2.392500E+03  1.412737E-08  7.134387E-11
   2.407500E+03  1.398848E-08  7.099479E-11
   2.422500E+03  1.387404E-08  7.069743E-11
   2.437500E+03  1.377336E-08  7.043773E-11
   2.452500E+03  1.366380E-08  7.014274E-11
   2.467500E+03  1.350440E-08  6.975947E-11
   2.482500E+03  1.344365E-08  6.960509E-11
   2.497500E+03  1.334388E-08  6.932901E-11
   2.512500E+03  1.320239E-08  6.894641E-11
   2.527500E+03  1.308724E-08  6.865598E-11
   2.542500E+03  1.300894E-08  6.844933E-11
   2.557500E+03  1.287920E-08  6.810502E-11
   2.572500E+03  1.279646E-08  6.787314E-11
   2.587500E+03  1.269713E-08  6.762280E-11
   2.602500E+03  1.258278E-08  6.730249E-11
   2.617500E+03  1.252067E-08  6.715698E-11
   2.632500E+03  1.237534E-08  6.676986E-11
   2.647500E+03  1.228121E-08  6.651314E-11
   2.662500E+03  1.222455E-08  7.920568E-11
   2.677500E+03  1.211949E-08  6.607334E-11
   2.692500E+03  1.203295E-08  6.583473E-11
   2.707500E+03  1.192675E-08  6.554837E-11
   2.722500E+03  1.181004E-08  6.520455E-11
   2.737500E+03  1.177535E-08  6.513393E-11
   2.752500E+03  1.168210E-08  6.486029E-11
   2.767500E+03  1.157722E-08  6.456846E-11
   2.782500E+03  1.147390E-08  6.426559E-11
   2.797500E+03  1.141346E-08  6.412466E-11
   2.812500E+03  1.136778E-08  6.399469E-11
   2.827500E+03  1.124223E-08  6.362838E-11
   2.842500E+03  1.114167E-08  6.333405E-11
   2.857500E+03  1.109842E-08  6.322025E-11
   2.872500E+03  1.096564E-08  6.281943E-11
   2.887500E+03  1.090193E-08  6.266245E-11
   2.902500E+03  1.082754E-08  6.245007E-11
   2.917500E+03  1.075504E-08  6.223644E-11
   2.932500E+03  1.070684E-08  6.208987E-11
   2.947500E+03  1.056870E-08  6.169829E-11
   2.962500E+03  1.052681E-08  6.155993E-11
   2.977500E+03  1.043700E-08  6.131964E-11
   2.992500E+03  1.040986E-08  6.123362E-11
   3.007500E+03  1.035890E-08  6.106390E-11
   3.022500E+03  1.027021E-08  6.080632E-11
   3.037500E+03  1.021309E-08  6.063392E-11
   3.052500E+03  1.012755E-08  6.039405E-11
   3.067500E+03  1.005481E-08  6.017180E-11
   3.082500E+03  9.955243E-09  5.986970E-11
   3.097500E+03  9.888574E-09  5.966013E-11
   3.112500E+03  9.825262E-09  5.948990E-11
   3.127500E+03  9.753196E-09  5.927338E-11
   3.142500E+03  9.717863E-09  5.915290E-11
   3.157500E+03  9.592437E-09  5.876912E-11
   3.172500E+03  9.549230E-09  5.863454E-11
   3.187500E+03  9.498628E-09  5.848629E-11
   3.202500E+03  9.419248E-09  5.823665E-11
   3.217500E+03  9.346823E-09  5.801413E-11
   3.232500E+03  9.297180E-09  5.786985E-11
   3.247500E+03  9.226474E-09  5.763412E-11
   3.262500E+03  9.179829E-09  5.748125E-11
   3.277500E+03  9.131825E-09  5.734035E-11
   3.292500E+03  9.040494E-09  5.705974E-11
   3.307500E+03  8.993170E-09  5.690038E-11
   3.322500E+03  8.933415E-09  5.672611E-11
   3.337500E+03  8.865346E-09  5.650176E-11
   3.352500E+03  8.850957E-09  5.645645E-11
   3.367500E+03  8.774335E-09  5.620472E-11
   3.382500E+03  8.692757E-09  5.594677E-11
   3.397500E+03  8.653067E-09  5.582105E-11
   3.412500E+03  8.633162E-09  5.575054E-11
   3.427500E+03  8.560217E-09  5.551569E-11
   3.442500E+03  8.511853E-09  5.536190E-11
   3.457500E+03  8.416325E-09  5.506151E-11
   3.472500E+03  8.369281E-09  5.488443E-11
   3.487500E+03  8.327912E-09  5.477098E-11
   3.502500E+03  8.262282E-09  5.453820E-11
   3.517500E+03  8.257365E-09  5.451125E-11
   3.532500E+03  8.181383E-09  5.426280E-11
   3.547500E+03  8.156881E-09  5.420230E-11
   3.562500E+03  8.091970E-09  5.398424E-11
   3.577500E+03  8.061273E-09  5.387515E-11
   3.592500E+03  7.983532E-09  5.360873E-11
   3.607500E+03  7.916423E-09  5.338628E-11
   3.622500E+03  7.889923E-09  5.330491E-11
   3.637500E+03  7.814915E-09  6.845238E-11
   3.652500E+03  7.752666E-09  5.281876E-11
   3.667500E+03  7.705702E-09  5.268792E-11
   3.682500E+03  7.678762E-09  5.256922E-11
   3.697500E+03  7.605617E-09  5.234629E-11
   3.712500E+03  7.576479E-09  5.221661E-11
   3.727500E+03  7.544344E-09  5.211591E-11
   3.742500E+03  7.493702E-09  5.194251E-11
   3.757500E+03  7.466882E-09  5.184604E-11
   3.772500E+03  7.402211E-09  5.162264E-11
   3.787500E+03  7.357405E-09  5.146669E-11
   3.802500E+03  7.301207E-09  5.126851E-11
   3.817500E+03  7.261038E-09  5.112774E-11
   3.832500E+03  7.245849E-09  5.107385E-11
   3.847500E+03  7.201842E-09  5.090876E-11
   3.862500E+03  7.160753E-09  5.077537E-11
   3.877500E+03  7.085250E-09  5.051004E-11
   3.892500E+03  7.095762E-09  5.052830E-11
   3.907500E+03  7.040764E-09  5.034678E-11
   3.922500E+03  6.998596E-09  5.020088E-11
   3.937500E+03  6.976053E-09  5.011401E-11
   3.952500E+03  6.913660E-09  4.987968E-11
   3.967500E+03  6.875769E-09  4.975998E-11
   3.982500E+03  6.838916E-09  4.961731E-11
   3.997500E+03  6.777643E-09  4.939445E-11
   4.012500E+03  6.748824E-09  4.928624E-11
   4.027500E+03  6.695065E-09  4.909944E-11
   4.042500E+03  6.638708E-09  4.888898E-11
   4.057500E+03  6.623359E-09  4.883961E-11
   4.072500E+03  6.579392E-09  4.866979E-11
   4.087500E+03  6.538143E-09  4.851371E-11
   4.102500E+03  6.507287E-09  4.840077E-11
   4.117500E+03  6.453008E-09  4.820910E-11
   4.132500E+03  6.414877E-09  4.805309E-11
   4.147500E+03  6.400927E-09  4.798402E-11
   4.162500E+03  6.364275E-09  4.787028E-11
   4.177500E+03  6.370350E-09  4.788883E-11
   4.192500E+03  6.309996E-09  4.765922E-11
   4.207500E+03  6.271105E-09  4.751940E-11
   4.222500E+03  6.224900E-09  4.732600E-11
   4.237500E+03  6.175897E-09  4.716000E-11
   4.252500E+03  6.148078E-09  4.704688E-11
   4.267500E+03  6.130211E-09  4.697530E-11
   4.282500E+03  6.090202E-09  4.682699E-11
   4.297500E+03  6.070576E-09  4.675178E-11
   4.312500E+03  6.016537E-09  4.654196E-11
   4.327500E+03  6.018616E-09  4.654184E-11
   4.342500E+03  5.935558E-09  4.622711E-11
   4.357500E+03  5.934559E-09  4.621581E-11
   4.372500E+03  5.875284E-09  4.598362E-11
   4.387500E+03  5.876203E-09  4.599435E-11
   4.402500E+03  5.838232E-09  4.583936E-11
   4.417500E+03  5.791947E-09  4.566132E-11
   4.432500E+03  5.753816E-09  4.550864E-11
   4.447500E+03  5.752736E-09  4.550412E-11
   4.462500E+03  5.716004E-09  4.536112E-11
   4.477500E+03  5.659887E-09  4.514286E-11
   4.492500E+03  5.631668E-09  4.502965E-11
   4.507500E+03  5.601011E-09  4.490365E-11
   4.522500E+03  5.563799E-09  4.475067E-11
   4.537500E+03  5.540257E-09  4.465406E-11
   4.552500E+03  5.513437E-09  4.454902E-11
   4.567500E+03  5.477105E-09  4.440510E-11
   4.582500E+03  5.468991E-09  4.437948E-11
   4.597500E+03  5.445129E-09  4.427231E-11
   4.612500E+03  5.408556E-09  4.410987E-11
   4.627500E+03  5.352279E-09  4.388686E-11
   4.642500E+03  5.346123E-09  4.387999E-11
   4.657500E+03  5.333813E-09  4.380852E-11
   4.672500E+03  5.294442E-09  4.365073E-11
   4.687500E+03  5.253393E-09  4.349145E-11
   4.702500E+03  5.231930E-09  4.340179E-11
   4.717500E+03  5.197835E-09  4.324650E-11
   4.732500E+03  5.152110E-09  4.305640E-11
   4.747500E+03  5.121053E-09  4.293452E-11
   4.762500E+03  5.097631E-09  4.281741E-11
   4.777500E+03  5.091875E-09  4.281134E-11
   4.792500E+03  5.065056E-09  4.269558E-11
   4.807500E+03  5.039795E-09  4.259174E-11
   4.822500E+03  5.007259E-09  4.245079E-11
   4.837500E+03  4.974324E-09  4.232229E-11
   4.852500E+03  4.970207E-09  4.230093E-11
   4.867500E+03  4.967889E-09  4.228881E-11
   4.882500E+03  4.913930E-09  4.204515E-11
   4.897500E+03  4.894105E-09  4.195994E-11
   4.912500E+03  4.883992E-09  4.192465E-11
   4.927500E+03  4.822519E-09  4.165953E-11
   4.942500E+03  4.810288E-09  4.161390E-11
   4.957500E+03  4.799296E-09  4.154653E-11
   4.972500E+03  4.769239E-09  4.143201E-11
   4.987500E+03  4.730668E-09  4.126415E-11
   5.002501E+03  4.721115E-09  4.121880E-11
   5.017501E+03  4.696214E-09  4.110919E-11
   5.032501E+03  4.666517E-09  4.097568E-11
   5.047501E+03  4.662799E-09  4.096657E-11
   5.062501E+03  4.637219E-09  4.084381E-11
   5.077501E+03  4.601126E-09  4.069737E-11
   5.092501E+03  4.569270E-09  4.054450E-11
   5.107501E+03  4.552842E-09  4.048056E-11
   5.122501E+03  4.537974E-09  4.040239E-11
   5.137501E+03  4.495126E-09  4.022767E-11
   5.152501E+03  4.531139E-09  4.038121E-11
   5.167501E+03  4.444324E-09  3.999563E-11
   5.182501E+03  4.437010E-09  3.996813E-11
   5.197501E+03  4.411669E-09  3.985268E-11
   5.212501E+03  4.415546E-09  3.986565E-11
   5.227501E+03  4.390165E-09  3.975551E-11
   5.242501E+03  4.361507E-09  3.960820E-11
   5.257501E+03  4.303231E-09  3.934558E-11
   5.272501E+03  4.316101E-09  3.941906E-11
   5.287501E+03  4.306948E-09  3.936823E-11
   5.302501E+03  4.270256E-09  3.920132E-11
   5.317501E+03  4.240998E-09  3.907897E-11
   5.332501E+03  4.224450E-09  3.899507E-11
   5.347501E+03  4.196072E-09  3.886609E-11
   5.362501E+03  4.186239E-09  3.881400E-11
   5.377501E+03  4.165975E-09  3.872357E-11
   5.392501E+03  4.140754E-09  3.859332E-11
   5.407501E+03  4.142512E-09  3.861186E-11
   5.422501E+03  4.100304E-09  3.841193E-11
   5.437501E+03  4.076442E-09  3.830006E-11
   5.452501E+03  4.042788E-09  3.814256E-11
   5.467501E+03  4.073364E-09  3.828350E-11
   5.482501E+03  4.030837E-09  3.808976E-11
   5.497501E+03  4.008613E-09  3.798536E-11
   5.512501E+03  3.973600E-09  3.781822E-11
   5.527501E+03  3.988668E-09  3.788075E-11
   5.542501E+03  3.953575E-09  3.771047E-11
   5.557501E+03  3.944462E-09  3.768268E-11
   5.572501E+03  3.940065E-09  3.765808E-11
   5.587501E+03  3.913245E-09  3.754483E-11
   5.602501E+03  3.890223E-09  3.743008E-11
   5.617501E+03  3.854570E-09  3.725696E-11
   5.632501E+03  3.833066E-09  3.713814E-11
   5.647501E+03  3.813641E-09  3.703359E-11
   5.662501E+03  3.779426E-09  3.689476E-11
   5.677501E+03  3.782464E-09  3.690242E-11
   5.692501E+03  3.765157E-09  3.680979E-11
   5.707501E+03  3.744573E-09  3.670571E-11
   5.722501E+03  3.736938E-09  3.667452E-11
   5.737501E+03  3.715115E-09  3.656362E-11
   5.752501E+03  3.685098E-09  3.641034E-11
   5.767501E+03  3.685737E-09  3.640675E-11
   5.782501E+03  3.657518E-09  3.629135E-11
   5.797501E+03  3.652083E-09  3.625632E-11
   5.812501E+03  3.638253E-09  3.618471E-11
   5.827501E+03  3.609635E-09  3.605584E-11
   5.842501E+03  3.601761E-09  3.600692E-11
   5.857501E+03  3.588970E-09  3.593355E-11
   5.872501E+03  3.571663E-09  3.584800E-11
   5.887501E+03  3.542285E-09  3.570162E-11
   5.902501E+03  3.536450E-09  3.568336E-11
   5.917501E+03  3.512868E-09  3.556616E-11
   5.932501E+03  3.497160E-09  3.547964E-11
   5.947501E+03  3.474337E-09  3.535867E-11
   5.962501E+03  3.495201E-09  3.545560E-11
   5.977501E+03  3.458948E-09  3.527936E-11
   5.992501E+03  3.442721E-09  3.520746E-11
   6.007501E+03  3.417460E-09  3.507479E-11
   6.022501E+03  3.399833E-09  3.498506E-11
   6.037501E+03  3.377130E-09  3.485223E-11
   6.052501E+03  3.393358E-09  3.493887E-11
   6.067501E+03  3.367817E-09  3.481281E-11
   6.082501E+03  3.326568E-09  3.460750E-11
   6.097501E+03  3.347912E-09  3.470489E-11
   6.112501E+03  3.310660E-09  3.452250E-11
   6.127501E+03  3.294872E-09  3.443081E-11
   6.142501E+03  3.266494E-09  3.427802E-11
   6.157501E+03  3.251265E-09  3.419531E-11
   6.172501E+03  3.244390E-09  3.417037E-11
   6.187501E+03  3.255742E-09  3.423420E-11
   6.202501E+03  3.207538E-09  3.398208E-11
   6.217501E+03  3.202942E-09  3.395625E-11
   6.232501E+03  3.184516E-09  3.385335E-11
   6.247501E+03  3.173724E-09  3.379855E-11
   6.262501E+03  3.149542E-09  3.365698E-11
   6.277501E+03  3.149582E-09  3.366616E-11
   6.292501E+03  3.119245E-09  3.350712E-11
   6.307501E+03  3.120124E-09  3.351223E-11
   6.322501E+03  3.097861E-09  3.338701E-11
   6.337501E+03  3.112610E-09  3.346747E-11
   6.352501E+03  3.086869E-09  3.332303E-11
   6.367501E+03  3.066964E-09  3.322491E-11
   6.382501E+03  3.045900E-09  3.310331E-11
   6.397501E+03  3.043982E-09  3.308775E-11
   6.412501E+03  3.006010E-09  3.289277E-11
   6.427501E+03  2.999735E-09  3.285870E-11
   6.442501E+03  2.993700E-09  3.283159E-11
   6.457501E+03  2.961364E-09  3.264429E-11
   6.472501E+03  2.985426E-09  3.278394E-11
   6.487501E+03  2.943378E-09  3.253871E-11
   6.502501E+03  2.948534E-09  3.256434E-11
   6.517501E+03  2.939740E-09  3.252494E-11
   6.532501E+03  2.919276E-09  3.241374E-11
   6.547501E+03  2.907405E-09  3.234473E-11
   6.562501E+03  2.868874E-09  3.212685E-11
   6.577501E+03  2.866596E-09  3.212403E-11
   6.592501E+03  2.868914E-09  3.212796E-11
   6.607501E+03  2.866036E-09  3.211868E-11
   6.622501E+03  2.818552E-09  3.184546E-11
   6.637501E+03  2.830903E-09  3.192275E-11
   6.652501E+03  2.812476E-09  3.181408E-11
   6.667501E+03  2.772027E-09  3.158300E-11
   6.682501E+03  2.784418E-09  3.165663E-11
   6.697501E+03  2.764792E-09  3.154434E-11
   6.712501E+03  2.765952E-09  3.154954E-11
   6.727501E+03  2.743289E-09  3.142829E-11
   6.742501E+03  2.754161E-09  3.147815E-11
   6.757501E+03  2.729619E-09  3.134133E-11
   6.772501E+03  2.696924E-09  3.115996E-11
   6.787501E+03  2.715590E-09  3.125713E-11
   6.802501E+03  2.697004E-09  3.115350E-11
   6.817501E+03  2.671343E-09  3.099904E-11
   6.832501E+03  2.657753E-09  3.092434E-11
   6.847501E+03  2.648280E-09  3.087236E-11
