 #  Results from PENEPMA.
 #  Probability of emission of bremmstrahlung photons.
 #  1st column: E (eV).
 #  2nd and 3rd columns: probability density and STU (1/(eV*sr*electron)).

   1.125000E+02  5.380545E-07  5.012896E-09
   1.275000E+02  4.648505E-07  4.519967E-09
   1.425000E+02  4.059142E-07  3.770610E-09
   1.575000E+02  3.645647E-07  3.977523E-09
   1.725000E+02  3.275603E-07  3.586292E-09
   1.875000E+02  2.988500E-07  3.619180E-09
   2.025000E+02  2.719537E-07  3.191037E-09
   2.175000E+02  2.502018E-07  2.825046E-09
   2.325000E+02  2.310512E-07  2.583571E-09
   2.475000E+02  2.147479E-07  2.318801E-09
   2.625000E+02  2.010610E-07  2.065983E-09
   2.775000E+02  1.884165E-07  2.011141E-09
   2.925000E+02  1.787940E-07  2.171005E-09
   3.075000E+02  1.683071E-07  1.947747E-09
   3.225000E+02  1.604380E-07  2.114377E-09
   3.375000E+02  1.510861E-07  1.522643E-09
   3.525000E+02  1.442596E-07  1.732091E-09
   3.675000E+02  1.374624E-07  1.619761E-09
   3.825000E+02  1.310806E-07  1.439088E-09
   3.975000E+02  1.260682E-07  1.431800E-09
   4.125000E+02  1.213167E-07  1.655001E-09
   4.275000E+02  1.159052E-07  1.354636E-09
   4.425000E+02  1.122563E-07  1.349787E-09
   4.575000E+02  1.076104E-07  1.276305E-09
   4.725000E+02  1.048134E-07  1.581003E-09
   4.875000E+02  9.979871E-08  7.362378E-10
   5.025001E+02  9.605602E-08  5.933864E-10
   5.175001E+02  9.381589E-08  1.107274E-09
   5.325001E+02  9.057513E-08  9.276487E-10
   5.475001E+02  8.724179E-08  8.198215E-10
   5.625001E+02  8.554445E-08  1.093375E-09
   5.775001E+02  8.306976E-08  1.088775E-09
   5.925001E+02  8.030629E-08  8.042368E-10
   6.075001E+02  7.813337E-08  9.954466E-10
   6.225001E+02  7.592715E-08  6.741479E-10
   6.375001E+02  7.384282E-08  6.678118E-10
   6.525001E+02  7.203561E-08  8.900277E-10
   6.675001E+02  7.008837E-08  6.574685E-10
   6.825001E+02  6.873455E-08  8.831247E-10
   6.975001E+02  6.711125E-08  9.754528E-10
   7.125001E+02  6.510703E-08  7.684496E-10
   7.275001E+02  6.380822E-08  8.733201E-10
   7.425001E+02  6.217774E-08  7.611491E-10
   7.575001E+02  6.098849E-08  7.585027E-10
   7.725001E+02  5.956800E-08  9.605661E-10
   7.875001E+02  5.826043E-08  7.518423E-10
   8.025001E+02  5.678109E-08  6.202036E-10
   8.175001E+02  5.567952E-08  6.162216E-10
   8.325001E+02  5.454365E-08  4.464680E-10
   8.475001E+02  5.373133E-08  7.407441E-10
   8.625001E+02  5.236230E-08  6.063454E-10
   8.775001E+02  5.180289E-08  9.468334E-10
   8.925001E+02  5.083881E-08  7.336977E-10
   9.075001E+02  4.965764E-08  7.308979E-10
   9.225001E+02  4.861956E-08  5.947498E-10
   9.375001E+02  4.757946E-08  4.170102E-10
   9.525001E+02  4.704924E-08  5.899458E-10
   9.675001E+02  4.595132E-08  5.876219E-10
   9.825001E+02  4.508700E-08  4.054621E-10
   9.975001E+02  4.440282E-08  5.816921E-10
   1.012500E+03  4.373202E-08  5.795226E-10
   1.027500E+03  4.288993E-08  3.959743E-10
   1.042500E+03  4.235724E-08  7.120526E-10
   1.057500E+03  4.186707E-08  7.110380E-10
   1.072500E+03  4.070691E-08  7.078624E-10
   1.087500E+03  4.010162E-08  5.680038E-10
   1.102500E+03  3.944825E-08  3.794373E-10
   1.117500E+03  3.893783E-08  5.642815E-10
   1.132500E+03  3.845251E-08  5.625454E-10
   1.147500E+03  3.751546E-08  3.702554E-10
   1.162500E+03  3.719617E-08  5.583970E-10
   1.177500E+03  3.688219E-08  5.574669E-10
   1.192500E+03  3.605303E-08  3.630363E-10
   1.207500E+03  3.561580E-08  3.603708E-10
   1.222500E+03  3.514458E-08  5.517716E-10
   1.237500E+03  3.457723E-08  5.500264E-10
   1.252500E+03  3.434851E-08  5.502148E-10
   1.267500E+03  3.380935E-08  8.075637E-10
   1.282500E+03  3.291038E-08  3.465572E-10
   1.297500E+03  3.255437E-08  3.449333E-10
   1.312500E+03  3.222781E-08  5.421203E-10
   1.327500E+03  3.157807E-08  3.392448E-10
   1.342500E+03  3.165359E-08  5.401899E-10
   1.357500E+03  3.093920E-08  3.359794E-10
   1.372500E+03  3.047247E-08  3.335722E-10
   1.387500E+03  3.003483E-08  3.308183E-10
   1.402500E+03  2.954264E-08  3.281066E-10
   1.417500E+03  2.941980E-08  3.275615E-10
   1.432500E+03  2.902863E-08  3.251108E-10
   1.447500E+03  2.839946E-08  3.216358E-10
   1.462500E+03  2.811093E-08  3.202456E-10
   1.477500E+03  2.796016E-08  5.275159E-10
   1.492500E+03  2.747367E-08  3.166986E-10
   1.507500E+03  2.732860E-08  3.157269E-10
   1.522500E+03  2.681419E-08  3.126372E-10
   1.537500E+03  2.640605E-08  3.104398E-10
   1.552500E+03  2.629129E-08  3.096372E-10
   1.567500E+03  2.593488E-08  3.073444E-10
   1.582500E+03  2.564514E-08  3.057766E-10
   1.597500E+03  2.555220E-08  3.050732E-10
   1.612500E+03  2.498323E-08  3.018395E-10
   1.627500E+03  2.475451E-08  3.005089E-10
   1.642500E+03  2.479644E-08  6.655186E-10
   1.657500E+03  2.428131E-08  2.975444E-10
   1.672500E+03  2.412493E-08  2.965667E-10
   1.687500E+03  2.365416E-08  2.935472E-10
   1.702500E+03  2.346747E-08  2.927282E-10
   1.717500E+03  2.314459E-08  2.906833E-10
   1.732500E+03  2.288799E-08  2.887733E-10
   1.747500E+03  2.271100E-08  2.878843E-10
   1.762500E+03  2.246773E-08  2.860908E-10
   1.777500E+03  2.225275E-08  2.847614E-10
   1.792500E+03  2.212506E-08  2.839248E-10
   1.807500E+03  2.184219E-08  2.821014E-10
   1.822500E+03  2.146315E-08  2.794558E-10
   1.837500E+03  2.132172E-08  2.786695E-10
   1.852500E+03  2.096975E-08  2.763652E-10
   1.867500E+03  2.090065E-08  2.758897E-10
   1.882500E+03  2.078427E-08  2.751534E-10
   1.897500E+03  2.044968E-08  2.729214E-10
   1.912500E+03  2.039715E-08  2.725285E-10
   1.927500E+03  2.016479E-08  2.709819E-10
   1.942500E+03  1.993930E-08  2.695626E-10
   1.957500E+03  1.977363E-08  2.683849E-10
   1.972500E+03  1.939054E-08  2.659234E-10
   1.987500E+03  1.940343E-08  4.969704E-10
   2.002500E+03  1.927012E-08  2.647973E-10
   2.017500E+03  1.894321E-08  2.628445E-10
   2.032500E+03  1.875247E-08  2.615290E-10
   2.047500E+03  1.863569E-08  2.605086E-10
   2.062500E+03  1.844172E-08  2.589715E-10
   2.077500E+03  1.819806E-08  2.575107E-10
   2.092500E+03  1.797176E-08  2.559637E-10
   2.107500E+03  1.786548E-08  2.548818E-10
   2.122500E+03  1.778305E-08  2.546524E-10
   2.137500E+03  1.757534E-08  2.530519E-10
   2.152500E+03  1.741936E-08  2.519042E-10
   2.167500E+03  1.742421E-08  2.518853E-10
   2.182500E+03  1.712276E-08  2.497698E-10
   2.197500E+03  1.707022E-08  2.493964E-10
   2.212500E+03  1.685605E-08  2.478562E-10
   2.227500E+03  1.666613E-08  2.464298E-10
   2.242500E+03  1.654167E-08  2.456529E-10
   2.257500E+03  1.642933E-08  2.446056E-10
   2.272500E+03  1.631699E-08  2.437527E-10
   2.287500E+03  1.613474E-08  2.423862E-10
   2.302500E+03  1.601392E-08  2.415728E-10
   2.317500E+03  1.602559E-08  4.853615E-10
   2.332500E+03  1.570923E-08  2.391815E-10
   2.347500E+03  1.554072E-08  2.379375E-10
   2.362500E+03  1.548536E-08  2.374612E-10
   2.377500E+03  1.521462E-08  2.355282E-10
   2.392500E+03  1.520411E-08  2.351938E-10
   2.407500E+03  1.503277E-08  2.340880E-10
   2.422500E+03  1.494832E-08  2.333468E-10
   2.437500E+03  1.483436E-08  2.324373E-10
   2.452500E+03  1.445734E-08  2.293334E-10
   2.467500E+03  1.459514E-08  2.305015E-10
   2.482500E+03  1.451553E-08  2.300217E-10
   2.497500E+03  1.447997E-08  2.297307E-10
   2.512500E+03  1.421731E-08  2.276668E-10
   2.527500E+03  1.417488E-08  2.272418E-10
   2.542500E+03  1.403061E-08  2.260314E-10
   2.557500E+03  1.389847E-08  2.248436E-10
   2.572500E+03  1.375906E-08  2.238350E-10
   2.587500E+03  1.360510E-08  2.227461E-10
   2.602500E+03  1.355499E-08  2.222041E-10
   2.617500E+03  1.346528E-08  2.214188E-10
   2.632500E+03  1.329354E-08  2.200012E-10
   2.647500E+03  1.325192E-08  2.196876E-10
   2.662500E+03  1.323576E-08  2.194775E-10
   2.677500E+03  1.303007E-08  2.177785E-10
   2.692500E+03  1.294440E-08  2.170363E-10
   2.707500E+03  1.284500E-08  2.160432E-10
   2.722500E+03  1.284176E-08  2.163431E-10
   2.737500E+03  1.266113E-08  2.148305E-10
   2.752500E+03  1.263931E-08  2.145074E-10
   2.767500E+03  1.244454E-08  2.128430E-10
   2.782500E+03  1.253384E-08  2.135895E-10
   2.797500E+03  1.235160E-08  2.117861E-10
   2.812500E+03  1.222350E-08  2.109797E-10
   2.827500E+03  1.220208E-08  2.107026E-10
   2.842500E+03  1.188082E-08  2.079972E-10
   2.857500E+03  1.184122E-08  2.074974E-10
   2.872500E+03  1.189254E-08  2.082168E-10
   2.887500E+03  1.164928E-08  2.060401E-10
   2.902500E+03  1.174666E-08  2.070237E-10
   2.917500E+03  1.155189E-08  2.050946E-10
   2.932500E+03  1.158583E-08  2.054087E-10
   2.947500E+03  1.155270E-08  2.050156E-10
   2.962500E+03  1.137328E-08  2.033161E-10
   2.977500E+03  1.128074E-08  2.024288E-10
   2.992500E+03  1.131105E-08  2.031066E-10
   3.007500E+03  1.111789E-08  2.011377E-10
   3.022500E+03  1.101727E-08  2.002861E-10
   3.037500E+03  1.094130E-08  1.995907E-10
   3.052500E+03  1.102050E-08  2.002634E-10
   3.067500E+03  1.073158E-08  1.979570E-10
   3.082500E+03  1.070571E-08  1.973606E-10
   3.097500E+03  1.079421E-08  1.982282E-10
   3.112500E+03  1.059620E-08  1.965611E-10
   3.127500E+03  1.062247E-08  1.968279E-10
   3.142500E+03  1.047942E-08  1.953163E-10
   3.157500E+03  1.039456E-08  1.943700E-10
   3.172500E+03  1.033597E-08  1.939404E-10
   3.187500E+03  1.028505E-08  1.936864E-10
   3.202500E+03  1.023979E-08  1.929668E-10
   3.217500E+03  1.014846E-08  1.923006E-10
   3.232500E+03  1.004259E-08  1.912205E-10
   3.247500E+03  9.884590E-09  1.897702E-10
   3.262500E+03  1.001188E-08  1.908580E-10
   3.277500E+03  9.826804E-09  1.892051E-10
   3.292500E+03  9.776696E-09  1.885859E-10
   3.307500E+03  9.868426E-09  1.895336E-10
   3.322500E+03  9.649002E-09  1.873471E-10
   3.337500E+03  9.561717E-09  1.865012E-10
   3.352500E+03  9.554040E-09  1.865462E-10
   3.367500E+03  9.524945E-09  1.862371E-10
   3.382500E+03  9.349567E-09  1.844909E-10
   3.397500E+03  9.463118E-09  1.855745E-10
   3.412500E+03  9.339465E-09  1.844253E-10
   3.427500E+03  9.180251E-09  1.827622E-10
   3.442500E+03  9.234804E-09  1.834609E-10
   3.457500E+03  9.177826E-09  1.828270E-10
   3.472500E+03  9.045687E-09  1.813172E-10
   3.487500E+03  8.880008E-09  1.797646E-10
   3.502500E+03  8.924054E-09  1.803064E-10
   3.517500E+03  8.920417E-09  1.802297E-10
   3.532500E+03  8.925266E-09  1.802369E-10
   3.547500E+03  8.821010E-09  1.790478E-10
   3.562500E+03  8.719986E-09  1.780811E-10
   3.577500E+03  8.621790E-09  1.770710E-10
   3.592500E+03  8.641995E-09  1.773405E-10
   3.607500E+03  8.519150E-09  1.762101E-10
   3.622500E+03  8.474295E-09  1.755884E-10
   3.637500E+03  8.352258E-09  1.743364E-10
   3.652500E+03  8.446413E-09  1.753889E-10
   3.667500E+03  8.339327E-09  1.741957E-10
   3.682500E+03  8.283562E-09  1.736577E-10
   3.697500E+03  8.174052E-09  1.724014E-10
   3.712500E+03  8.256084E-09  1.731887E-10
   3.727500E+03  8.188195E-09  1.727009E-10
   3.742500E+03  8.212037E-09  1.728790E-10
   3.757500E+03  8.094849E-09  1.717510E-10
   3.772500E+03  8.115054E-09  1.721231E-10
   3.787500E+03  8.036255E-09  1.709865E-10
   3.802500E+03  7.942505E-09  1.701434E-10
   3.817500E+03  7.804304E-09  1.684866E-10
   3.832500E+03  7.836632E-09  1.688724E-10
   3.847500E+03  7.791777E-09  1.682927E-10
   3.862500E+03  7.809558E-09  1.683765E-10
   3.877500E+03  7.787736E-09  1.683284E-10
   3.892500E+03  7.601448E-09  1.663844E-10
   3.907500E+03  7.573566E-09  1.661024E-10
   3.922500E+03  7.514972E-09  1.653733E-10
   3.937500E+03  7.537197E-09  1.656930E-10
   3.952500E+03  7.487089E-09  1.650628E-10
   3.967500E+03  7.455165E-09  1.647169E-10
   3.982500E+03  7.473350E-09  1.648249E-10
   3.997500E+03  7.314136E-09  1.631794E-10
   4.012500E+03  7.221194E-09  1.622033E-10
   4.027500E+03  7.257563E-09  1.624138E-10
   4.042500E+03  7.206646E-09  1.619068E-10
   4.057500E+03  7.234529E-09  1.622597E-10
   4.072500E+03  7.059151E-09  1.603335E-10
   4.087500E+03  7.096732E-09  1.606241E-10
   4.102500E+03  7.154114E-09  1.614621E-10
   4.117500E+03  7.038543E-09  1.599106E-10
   4.132500E+03  7.011064E-09  1.597317E-10
   4.147500E+03  6.912061E-09  1.585541E-10
   4.162500E+03  6.937519E-09  1.588319E-10
   4.177500E+03  6.794065E-09  1.571793E-10
   4.192500E+03  6.809824E-09  1.574147E-10
   4.207500E+03  6.826392E-09  1.575377E-10
   4.222500E+03  6.752443E-09  1.566859E-10
   4.237500E+03  6.697890E-09  1.560802E-10
   4.252500E+03  6.688595E-09  1.560301E-10
   4.267500E+03  6.703547E-09  1.563144E-10
   4.282500E+03  6.516855E-09  1.540657E-10
   4.297500E+03  6.498670E-09  1.538160E-10
   4.312500E+03  6.424721E-09  1.528852E-10
   4.327500E+03  6.437652E-09  1.531422E-10
   4.342500E+03  6.431995E-09  1.530376E-10
   4.357500E+03  6.381078E-09  1.522282E-10
   4.372500E+03  6.410577E-09  1.528059E-10
   4.387500E+03  6.360066E-09  1.521160E-10
   4.402500E+03  6.340669E-09  1.519454E-10
   4.417500E+03  6.267932E-09  1.510269E-10
   4.432500E+03  6.261466E-09  1.509209E-10
   4.447500E+03  6.179031E-09  1.499192E-10
   4.462500E+03  6.106293E-09  1.490765E-10
   4.477500E+03  6.191558E-09  1.501766E-10
   4.492500E+03  6.169332E-09  1.498817E-10
   4.507500E+03  6.121649E-09  1.492709E-10
   4.522500E+03  6.080835E-09  1.486317E-10
   4.537500E+03  6.009310E-09  1.478460E-10
   4.552500E+03  6.052953E-09  1.484040E-10
   4.567500E+03  6.012139E-09  1.478703E-10
   4.582500E+03  6.065884E-09  1.486788E-10
   4.597500E+03  5.957990E-09  1.473020E-10
   4.612500E+03  5.891314E-09  1.463977E-10
   4.627500E+03  5.768065E-09  1.448898E-10
   4.642500E+03  5.790694E-09  1.451494E-10
   4.657500E+03  5.660575E-09  1.435115E-10
   4.672500E+03  5.694115E-09  1.439915E-10
   4.687500E+03  5.716341E-09  1.441357E-10
   4.702500E+03  5.821810E-09  1.455840E-10
   4.717500E+03  5.634713E-09  1.432390E-10
   4.732500E+03  5.583393E-09  1.425430E-10
   4.747500E+03  5.694520E-09  1.440374E-10
   4.762500E+03  5.563592E-09  1.422108E-10
   4.777500E+03  5.518738E-09  1.416850E-10
   4.792500E+03  5.504999E-09  1.414692E-10
   4.807500E+03  5.473883E-09  1.411363E-10
   4.822500E+03  5.482773E-09  1.413014E-10
   4.837500E+03  5.439535E-09  1.406151E-10
   4.852500E+03  5.466205E-09  1.409552E-10
   4.867500E+03  5.384982E-09  1.398958E-10
   4.882500E+03  5.344572E-09  1.394393E-10
   4.897500E+03  5.358312E-09  1.396162E-10
   4.912500E+03  5.298506E-09  1.388553E-10
   4.927500E+03  5.233850E-09  1.380483E-10
   4.942500E+03  5.251226E-09  1.382530E-10
   4.957500E+03  5.156668E-09  1.369973E-10
   4.972500E+03  5.200310E-09  1.374616E-10
   4.987500E+03  5.246377E-09  1.381900E-10
   5.002501E+03  5.184551E-09  1.373197E-10
   5.017501E+03  5.108580E-09  1.363760E-10
   5.032501E+03  5.048774E-09  1.355423E-10
   5.047501E+03  5.076657E-09  1.359763E-10
   5.062501E+03  5.097670E-09  1.361674E-10
   5.077501E+03  5.025337E-09  1.353072E-10
   5.092501E+03  5.072212E-09  1.357877E-10
   5.107501E+03  4.937648E-09  1.340606E-10
   5.122501E+03  4.851171E-09  1.327741E-10
   5.137501E+03  4.906937E-09  1.335051E-10
   5.152501E+03  4.917847E-09  1.337728E-10
   5.167501E+03  4.872184E-09  1.331357E-10
   5.182501E+03  4.872588E-09  1.331742E-10
   5.197501E+03  4.788537E-09  1.320123E-10
   5.212501E+03  4.721053E-09  1.309551E-10
   5.227501E+03  4.744490E-09  1.314780E-10
   5.242501E+03  4.657609E-09  1.302276E-10
   5.257501E+03  4.685492E-09  1.305897E-10
   5.272501E+03  4.644274E-09  1.300207E-10
   5.287501E+03  4.607097E-09  1.294713E-10
   5.302501E+03  4.599824E-09  1.294383E-10
   5.317501E+03  4.645487E-09  1.300714E-10
   5.332501E+03  4.615179E-09  1.295835E-10
   5.347501E+03  4.594570E-09  1.292516E-10
   5.362501E+03  4.616796E-09  1.295606E-10
   5.377501E+03  4.525874E-09  1.283261E-10
   5.392501E+03  4.595379E-09  1.292174E-10
   5.407501E+03  4.541230E-09  1.286784E-10
   5.422501E+03  4.456774E-09  1.273650E-10
   5.437501E+03  4.427679E-09  1.269185E-10
   5.452501E+03  4.431720E-09  1.270221E-10
   5.467501E+03  4.367873E-09  1.261491E-10
   5.482501E+03  4.406262E-09  1.265215E-10
   5.497501E+03  4.382016E-09  1.262111E-10
   5.512501E+03  4.335949E-09  1.255641E-10
   5.527501E+03  4.339586E-09  1.256630E-10
   5.542501E+03  4.315744E-09  1.253327E-10
   5.557501E+03  4.272910E-09  1.246452E-10
   5.572501E+03  4.289478E-09  1.249078E-10
   5.587501E+03  4.201789E-09  1.236492E-10
   5.602501E+03  4.175523E-09  1.232422E-10
   5.617501E+03  4.225227E-09  1.239663E-10
   5.632501E+03  4.224015E-09  1.240436E-10
   5.647501E+03  4.203406E-09  1.236727E-10
   5.662501E+03  4.126223E-09  1.225317E-10
   5.677501E+03  4.095108E-09  1.220494E-10
   5.692501E+03  4.087026E-09  1.218939E-10
   5.707501E+03  4.093492E-09  1.220617E-10
   5.722501E+03  4.067629E-09  1.218002E-10
   5.737501E+03  3.992872E-09  1.205676E-10
   5.752501E+03  4.020754E-09  1.210321E-10
   5.767501E+03  4.004590E-09  1.206817E-10
   5.782501E+03  4.024391E-09  1.210498E-10
   5.797501E+03  3.963373E-09  1.201627E-10
   5.812501E+03  3.969434E-09  1.202046E-10
   5.827501E+03  3.945997E-09  1.198160E-10
   5.842501E+03  3.920539E-09  1.194818E-10
   5.857501E+03  3.946401E-09  1.199324E-10
   5.872501E+03  3.897101E-09  1.190414E-10
   5.887501E+03  3.896697E-09  1.191093E-10
   5.902501E+03  3.815878E-09  1.179425E-10
   5.917501E+03  3.836487E-09  1.182197E-10
   5.932501E+03  3.804967E-09  1.176508E-10
   5.947501E+03  3.768598E-09  1.171048E-10
   5.962501E+03  3.713641E-09  1.162305E-10
   5.977501E+03  3.725360E-09  1.164500E-10
   5.992501E+03  3.741524E-09  1.167125E-10
   6.007501E+03  3.710409E-09  1.160791E-10
   6.022501E+03  3.744757E-09  1.166995E-10
   6.037501E+03  3.704751E-09  1.161558E-10
   6.052501E+03  3.650602E-09  1.152103E-10
   6.067501E+03  3.665554E-09  1.154313E-10
   6.082501E+03  3.634439E-09  1.149570E-10
   6.097501E+03  3.594837E-09  1.143213E-10
   6.112501E+03  3.616254E-09  1.147227E-10
   6.127501E+03  3.607768E-09  1.146277E-10
   6.142501E+03  3.544729E-09  1.136058E-10
   6.157501E+03  3.514826E-09  1.130781E-10
   6.172501E+03  3.560085E-09  1.138493E-10
   6.187501E+03  3.521292E-09  1.131552E-10
   6.202501E+03  3.496642E-09  1.128007E-10
   6.217501E+03  3.518059E-09  1.131556E-10
   6.232501E+03  3.543921E-09  1.135671E-10
   6.247501E+03  3.476841E-09  1.123660E-10
   6.262501E+03  3.424713E-09  1.116445E-10
   6.277501E+03  3.434815E-09  1.118602E-10
   6.292501E+03  3.341065E-09  1.102445E-10
   6.307501E+03  3.382283E-09  1.109303E-10
   6.322501E+03  3.400063E-09  1.111662E-10
   6.337501E+03  3.322881E-09  1.099331E-10
   6.352501E+03  3.342681E-09  1.102310E-10
   6.367501E+03  3.328538E-09  1.100260E-10
   6.382501E+03  3.325305E-09  1.100397E-10
   6.397501E+03  3.305100E-09  1.096811E-10
   6.412501E+03  3.329346E-09  1.100259E-10
   6.427501E+03  3.212967E-09  1.081273E-10
   6.442501E+03  3.231151E-09  1.084440E-10
   6.457501E+03  3.276410E-09  1.091003E-10
   6.472501E+03  3.227514E-09  1.083292E-10
   6.487501E+03  3.238829E-09  1.085040E-10
   6.502501E+03  3.219432E-09  1.081673E-10
   6.517501E+03  3.229130E-09  1.083561E-10
   6.532501E+03  3.174982E-09  1.075187E-10
   6.547501E+03  3.153160E-09  1.071655E-10
   6.562501E+03  3.205693E-09  1.079923E-10
   6.577501E+03  3.143462E-09  1.069058E-10
   6.592501E+03  3.179427E-09  1.075660E-10
   6.607501E+03  3.099416E-09  1.062563E-10
   6.622501E+03  3.118812E-09  1.065439E-10
   6.637501E+03  3.057794E-09  1.055049E-10
   6.652501E+03  3.029507E-09  1.050057E-10
   6.667501E+03  3.086889E-09  1.060432E-10
   6.682501E+03  3.025062E-09  1.048031E-10
   6.697501E+03  3.023850E-09  1.049224E-10
   6.712501E+03  3.021829E-09  1.049436E-10
   6.727501E+03  2.985056E-09  1.041398E-10
   6.742501E+03  2.972934E-09  1.039859E-10
   6.757501E+03  2.992734E-09  1.043855E-10
   6.772501E+03  2.959598E-09  1.038107E-10
   6.787501E+03  2.930908E-09  1.032392E-10
   6.802501E+03  2.905854E-09  1.027999E-10
   6.817501E+03  2.928079E-09  1.032466E-10
   6.832501E+03  2.898176E-09  1.026650E-10
   6.847501E+03  2.915552E-09  1.030415E-10
