 #  Results from PENEPMA.
 #  Probability of emission of bremmstrahlung photons.
 #  1st column: E (eV).
 #  2nd and 3rd columns: probability density and STU (1/(eV*sr*electron)).

   5.250001E+01  5.790471E-07  2.032815E-09
   5.750001E+01  5.131515E-07  1.771850E-09
   6.250001E+01  4.590313E-07  1.475057E-09
   6.750001E+01  4.168417E-07  1.405243E-09
   7.250001E+01  3.812388E-07  1.295566E-09
   7.750001E+01  3.527712E-07  1.310983E-09
   8.250001E+01  3.278234E-07  1.283851E-09
   8.750001E+01  3.057279E-07  1.256087E-09
   9.250001E+01  2.846135E-07  1.125001E-09
   9.750001E+01  2.678859E-07  1.166525E-09
   1.025000E+02  2.529126E-07  1.139695E-09
   1.075000E+02  2.389552E-07  1.057928E-09
   1.125000E+02  2.269363E-07  1.037892E-09
   1.175000E+02  2.158493E-07  1.004717E-09
   1.225000E+02  2.052930E-07  8.931058E-10
   1.275000E+02  1.974819E-07  1.035203E-09
   1.325000E+02  1.880519E-07  8.912352E-10
   1.375000E+02  1.803869E-07  8.793702E-10
   1.425000E+02  1.728016E-07  7.879044E-10
   1.475000E+02  1.661276E-07  7.574819E-10
   1.525000E+02  1.607204E-07  8.467193E-10
   1.575000E+02  1.551704E-07  8.538647E-10
   1.625000E+02  1.495117E-07  7.810140E-10
   1.675000E+02  1.444583E-07  7.591559E-10
   1.725000E+02  1.397690E-07  7.498554E-10
   1.775000E+02  1.357861E-07  7.919875E-10
   1.825000E+02  1.315667E-07  7.532295E-10
   1.875000E+02  1.274457E-07  7.077998E-10
   1.925000E+02  1.232861E-07  6.129343E-10
   1.975000E+02  1.205229E-07  7.297253E-10
   2.025000E+02  1.169453E-07  6.781145E-10
   2.075000E+02  1.139453E-07  6.872730E-10
   2.125000E+02  1.106771E-07  6.269912E-10
   2.175000E+02  1.080101E-07  6.369024E-10
   2.225000E+02  1.051922E-07  6.209146E-10
   2.275000E+02  1.029390E-07  6.761505E-10
   2.325000E+02  1.003075E-07  6.041180E-10
   2.375000E+02  9.799022E-08  6.091422E-10
   2.425000E+02  9.574102E-08  6.248287E-10
   2.475000E+02  9.354766E-08  5.976763E-10
   2.525000E+02  9.140444E-08  5.862980E-10
   2.575000E+02  8.951513E-08  5.746297E-10
   2.625000E+02  8.811503E-08  6.644649E-10
   2.675000E+02  8.587829E-08  5.741272E-10
   2.725000E+02  8.422762E-08  5.681509E-10
   2.775000E+02  8.239528E-08  5.502715E-10
   2.825000E+02  8.051716E-08  4.660313E-10
   2.875000E+02  7.948794E-08  5.899945E-10
   2.925000E+02  7.754997E-08  4.860947E-10
   2.975000E+02  7.633351E-08  5.432998E-10
   3.025000E+02  7.507727E-08  5.430684E-10
   3.075000E+02  7.359619E-08  5.306459E-10
   3.125000E+02  7.201637E-08  4.500884E-10
   3.175000E+02  7.113458E-08  5.424395E-10
   3.225000E+02  7.016263E-08  5.773849E-10
   3.275000E+02  6.870981E-08  5.108360E-10
   3.325000E+02  6.766781E-08  5.233904E-10
   3.375000E+02  6.640518E-08  4.841052E-10
   3.425000E+02  6.537619E-08  4.972620E-10
   3.475000E+02  6.454143E-08  5.473962E-10
   3.525000E+02  6.329034E-08  4.766835E-10
   3.575000E+02  6.237473E-08  5.033463E-10
   3.625000E+02  6.138036E-08  4.763704E-10
   3.675000E+02  6.061748E-08  5.030726E-10
   3.725000E+02  5.924973E-08  3.844968E-10
   3.775000E+02  5.855435E-08  4.170539E-10
   3.825000E+02  5.767274E-08  4.089883E-10
   3.875000E+02  5.690753E-08  4.471195E-10
   3.925000E+02  5.599754E-08  3.837684E-10
   3.975000E+02  5.528685E-08  4.084354E-10
   4.025000E+02  5.464045E-08  4.467232E-10
   4.075000E+02  5.367382E-08  3.566495E-10
   4.125000E+02  5.303729E-08  3.830874E-10
   4.175000E+02  5.239874E-08  3.743027E-10
   4.225000E+02  5.171911E-08  4.077207E-10
   4.275000E+02  5.102382E-08  3.994149E-10
   4.325000E+02  5.018256E-08  3.269864E-10
   4.375000E+02  4.964535E-08  3.557356E-10
   4.425000E+02  4.921966E-08  4.071617E-10
   4.475000E+02  4.850790E-08  3.821032E-10
   4.525000E+02  4.785817E-08  3.552544E-10
   4.575000E+02  4.734437E-08  3.731847E-10
   4.625000E+02  4.669822E-08  3.455870E-10
   4.675000E+02  4.624108E-08  3.548478E-10
   4.725000E+02  4.562381E-08  3.257573E-10
   4.775000E+02  4.502329E-08  3.256480E-10
   4.825000E+02  4.475065E-08  3.980705E-10
   4.875000E+02  4.415113E-08  3.634668E-10
   4.925000E+02  4.350649E-08  3.043831E-10
   4.975000E+02  4.291309E-08  3.042247E-10
   5.025001E+02  4.256572E-08  3.249622E-10
   5.075001E+02  4.192686E-08  2.441039E-10
   5.125001E+02  4.175550E-08  3.346901E-10
   5.175001E+02  4.112550E-08  3.037015E-10
   5.225001E+02  4.079067E-08  3.142381E-10
   5.275001E+02  4.027693E-08  2.810578E-10
   5.325001E+02  3.989271E-08  2.924254E-10
   5.375001E+02  3.953254E-08  3.242118E-10
   5.425001E+02  3.912629E-08  3.137706E-10
   5.475001E+02  3.868076E-08  2.920012E-10
   5.525001E+02  3.815917E-08  2.140612E-10
   5.575001E+02  3.773761E-08  2.287151E-10
   5.625001E+02  3.750006E-08  2.801837E-10
   5.675001E+02  3.705055E-08  2.284566E-10
   5.725001E+02  3.673972E-08  2.799664E-10
   5.775001E+02  3.623180E-08  1.799617E-10
   5.825001E+02  3.597181E-08  2.280526E-10
   5.875001E+02  3.575403E-08  2.911665E-10
   5.925001E+02  3.532071E-08  2.417684E-10
   5.975001E+02  3.505322E-08  2.674381E-10
   6.025001E+02  3.456472E-08  1.791789E-10
   6.075001E+02  3.452693E-08  3.125478E-10
   6.125001E+02  3.409743E-08  2.671818E-10
   6.175001E+02  3.363701E-08  1.961918E-10
   6.225001E+02  3.329904E-08  1.960637E-10
   6.275001E+02  3.303737E-08  2.120282E-10
   6.325001E+02  3.274346E-08  1.782807E-10
   6.375001E+02  3.256021E-08  2.540662E-10
   6.425001E+02  3.225148E-08  2.539475E-10
   6.475001E+02  3.186103E-08  1.583829E-10
   6.525001E+02  3.164984E-08  1.953276E-10
   6.575001E+02  3.142048E-08  2.263432E-10
   6.625001E+02  3.114459E-08  2.262355E-10
   6.675001E+02  3.095603E-08  2.782180E-10
   6.725001E+02  3.062441E-08  1.948828E-10
   6.775001E+02  3.029589E-08  1.575047E-10
   6.825001E+02  3.005163E-08  2.108056E-10
   6.875001E+02  2.979106E-08  1.769259E-10
   6.925001E+02  2.961805E-08  1.944651E-10
   6.975001E+02  2.929870E-08  1.569712E-10
   7.025001E+02  2.903475E-08  1.568137E-10
   7.075001E+02  2.881881E-08  1.567062E-10
   7.125001E+02  2.874610E-08  2.528091E-10
   7.175001E+02  2.848809E-08  2.393665E-10
   7.225001E+02  2.829186E-08  2.526308E-10
   7.275001E+02  2.795967E-08  1.759677E-10
   7.325001E+02  2.781359E-08  2.249772E-10
   7.375001E+02  2.759806E-08  2.249043E-10
   7.425001E+02  2.726998E-08  1.558614E-10
   7.475001E+02  2.722923E-08  2.522577E-10
   7.525001E+02  2.685210E-08  1.329025E-10
   7.575001E+02  2.669699E-08  1.931636E-10
   7.625001E+02  2.643667E-08  1.554331E-10
   7.675001E+02  2.625382E-08  1.553083E-10
   7.725001E+02  2.612726E-08  1.750898E-10
   7.775001E+02  2.586839E-08  1.550950E-10
   7.825001E+02  2.578351E-08  2.242173E-10
   7.875001E+02  2.548476E-08  1.320330E-10
   7.925001E+02  2.531672E-08  1.746902E-10
   7.975001E+02  2.514256E-08  1.746073E-10
   8.025001E+02  2.503063E-08  2.087949E-10
   8.075001E+02  2.473222E-08  1.036552E-10
   8.125001E+02  2.455425E-08  1.544060E-10
   8.175001E+02  2.439028E-08  1.313552E-10
   8.225001E+02  2.419735E-08  1.312252E-10
   8.275001E+02  2.405167E-08  1.541195E-10
   8.325001E+02  2.391095E-08  1.310226E-10
   8.375001E+02  2.377241E-08  1.739436E-10
   8.425001E+02  2.364368E-08  2.082333E-10
   8.475001E+02  2.337471E-08  1.306848E-10
   8.525001E+02  2.324931E-08  1.536893E-10
   8.575001E+02  2.309464E-08  1.736188E-10
   8.625001E+02  2.296813E-08  1.735817E-10
   8.675001E+02  2.277407E-08  1.303126E-10
   8.725001E+02  2.265448E-08  1.533230E-10
   8.775001E+02  2.241924E-08  1.017553E-10
   8.825001E+02  2.232074E-08  1.299742E-10
   8.875001E+02  2.206156E-08  6.111816E-11
   8.925001E+02  2.203780E-08  1.529885E-10
   8.975001E+02  2.185208E-08  1.528810E-10
   9.025001E+02  2.172479E-08  1.295992E-10
   9.075001E+02  2.167341E-08  1.909457E-10
   9.125001E+02  2.150881E-08  1.526925E-10
   9.175001E+02  2.129957E-08  1.008529E-10
   9.225001E+02  2.113738E-08  1.006728E-10
   9.275001E+02  2.104597E-08  1.524403E-10
   9.325001E+02  2.084896E-08  5.940177E-11
   9.375001E+02  2.075245E-08  5.926254E-11
   9.425001E+02  2.058675E-08  1.002033E-10
   9.475001E+02  2.048503E-08  1.001244E-10
   9.525001E+02  2.034174E-08  1.000081E-10
   9.575001E+02  2.018883E-08  5.844364E-11
   9.625001E+02  2.005864E-08  5.827203E-11
   9.675001E+02  1.993541E-08  5.808141E-11
   9.725001E+02  1.981694E-08  5.793633E-11
   9.775001E+02  1.969003E-08  5.774084E-11
   9.825001E+02  1.956959E-08  5.756478E-11
   9.875001E+02  1.951327E-08  1.281415E-10
   9.925001E+02  1.935996E-08  5.723550E-11
   9.975001E+02  1.921941E-08  5.702327E-11
   1.002500E+03  1.913652E-08  9.898565E-11
   1.007500E+03  1.904487E-08  9.889125E-11
   1.012500E+03  1.890050E-08  9.882392E-11
   1.017500E+03  1.876747E-08  5.636639E-11
   1.022500E+03  1.868068E-08  5.623605E-11
   1.027500E+03  1.853147E-08  5.602155E-11
   1.032500E+03  1.844822E-08  5.587770E-11
   1.037500E+03  1.834457E-08  5.570581E-11
   1.042500E+03  1.823927E-08  5.557293E-11
   1.047500E+03  1.810079E-08  5.535424E-11
   1.052500E+03  1.799551E-08  5.519596E-11
   1.057500E+03  1.791248E-08  5.506775E-11
   1.062500E+03  1.782646E-08  5.493279E-11
   1.067500E+03  1.773943E-08  5.480305E-11
   1.072500E+03  1.759127E-08  5.457201E-11
   1.077500E+03  1.753207E-08  5.446777E-11
   1.082500E+03  1.740121E-08  5.426669E-11
   1.087500E+03  1.730072E-08  5.411027E-11
   1.092500E+03  1.720001E-08  5.397365E-11
   1.097500E+03  1.711001E-08  5.381220E-11
   1.102500E+03  1.703889E-08  5.372190E-11
   1.107500E+03  1.692728E-08  5.352893E-11
   1.112500E+03  1.682185E-08  5.336360E-11
   1.117500E+03  1.675743E-08  5.326980E-11
   1.122500E+03  1.664706E-08  5.309282E-11
   1.127500E+03  1.655633E-08  5.295304E-11
   1.132500E+03  1.644957E-08  5.275676E-11
   1.137500E+03  1.638119E-08  5.268055E-11
   1.142500E+03  1.628155E-08  5.251069E-11
   1.147500E+03  1.620694E-08  5.237428E-11
   1.152500E+03  1.610870E-08  5.224004E-11
   1.157500E+03  1.599991E-08  5.204000E-11
   1.162500E+03  1.594123E-08  5.195882E-11
   1.167500E+03  1.582575E-08  5.177052E-11
   1.172500E+03  1.577401E-08  5.168862E-11
   1.177500E+03  1.568480E-08  5.154664E-11
   1.182500E+03  1.560508E-08  5.141509E-11
   1.187500E+03  1.549682E-08  5.122592E-11
   1.192500E+03  1.541917E-08  5.110561E-11
   1.197500E+03  1.536015E-08  5.101282E-11
   1.202500E+03  1.528185E-08  5.089020E-11
   1.207500E+03  1.519466E-08  5.073919E-11
   1.212500E+03  1.512000E-08  5.060645E-11
   1.217500E+03  1.504717E-08  5.050098E-11
   1.222500E+03  1.498730E-08  5.037986E-11
   1.227500E+03  1.491187E-08  5.025654E-11
   1.232500E+03  1.479024E-08  5.004411E-11
   1.237500E+03  1.475458E-08  4.999700E-11
   1.242500E+03  1.468317E-08  4.988183E-11
   1.247500E+03  1.458298E-08  4.969905E-11
   1.252500E+03  1.450518E-08  4.956774E-11
   1.257500E+03  1.441733E-08  4.943352E-11
   1.262500E+03  1.436909E-08  4.933653E-11
   1.267500E+03  1.429922E-08  4.922589E-11
   1.272500E+03  1.423644E-08  4.911127E-11
   1.277500E+03  1.415492E-08  4.895496E-11
   1.282500E+03  1.407488E-08  4.884317E-11
   1.287500E+03  1.401407E-08  4.873079E-11
   1.292500E+03  1.392020E-08  4.856038E-11
   1.297500E+03  1.386809E-08  4.848543E-11
   1.302500E+03  1.380610E-08  4.836872E-11
   1.307500E+03  1.374244E-08  4.826691E-11
   1.312500E+03  1.366950E-08  4.813423E-11
   1.317500E+03  1.360220E-08  4.800236E-11
   1.322500E+03  1.352796E-08  4.786866E-11
   1.327500E+03  1.348648E-08  4.779830E-11
   1.332500E+03  1.338857E-08  4.763265E-11
   1.337500E+03  1.334126E-08  4.754414E-11
   1.342500E+03  1.328367E-08  4.744530E-11
   1.347500E+03  1.321754E-08  4.732471E-11
   1.352500E+03  1.312996E-08  4.717078E-11
   1.357500E+03  1.305568E-08  4.703531E-11
   1.362500E+03  1.301682E-08  4.697772E-11
   1.367500E+03  1.295719E-08  4.687447E-11
   1.372500E+03  1.290235E-08  4.676379E-11
   1.377500E+03  1.285462E-08  4.668585E-11
   1.382500E+03  1.278346E-08  4.656581E-11
   1.387500E+03  1.272822E-08  4.645272E-11
   1.392500E+03  1.264719E-08  4.632831E-11
   1.397500E+03  1.257518E-08  4.618374E-11
   1.402500E+03  1.255685E-08  4.613956E-11
   1.407500E+03  1.247894E-08  4.599954E-11
   1.412500E+03  1.239716E-08  4.584543E-11
   1.417500E+03  1.235835E-08  4.576893E-11
   1.422500E+03  1.230758E-08  4.568584E-11
   1.427500E+03  1.226084E-08  4.559624E-11
   1.432500E+03  1.220598E-08  4.551641E-11
   1.437500E+03  1.211502E-08  4.533362E-11
   1.442500E+03  1.208487E-08  4.528550E-11
   1.447500E+03  1.203213E-08  4.517340E-11
   1.452500E+03  1.199841E-08  4.510605E-11
   1.457500E+03  1.191537E-08  4.495637E-11
   1.462500E+03  1.186891E-08  4.485356E-11
   1.467500E+03  1.182127E-08  4.478776E-11
   1.472500E+03  1.173997E-08  4.463171E-11
   1.477500E+03  1.168545E-08  4.452123E-11
   1.482500E+03  1.164652E-08  4.444684E-11
   1.487500E+03  1.160297E-08  4.437257E-11
   1.492500E+03  1.153713E-08  4.423454E-11
   1.497500E+03  1.147289E-08  4.412671E-11
   1.502500E+03  1.141592E-08  4.401141E-11
   1.507500E+03  1.136994E-08  4.393033E-11
   1.512500E+03  1.136714E-08  4.392031E-11
   1.517500E+03  1.126185E-08  4.371775E-11
   1.522500E+03  1.122752E-08  4.365111E-11
   1.527500E+03  1.119228E-08  4.357729E-11
   1.532500E+03  1.110308E-08  4.339260E-11
   1.537500E+03  1.110332E-08  4.341148E-11
   1.542500E+03  1.107822E-08  4.336317E-11
   1.547500E+03  1.097707E-08  4.318267E-11
   1.552500E+03  1.093987E-08  4.309498E-11
   1.557500E+03  1.092550E-08  4.307149E-11
   1.562500E+03  1.085051E-08  4.290931E-11
   1.567500E+03  1.078166E-08  4.278284E-11
   1.572500E+03  1.075263E-08  4.271931E-11
   1.577500E+03  1.073631E-08  4.269028E-11
   1.582500E+03  1.065738E-08  4.253213E-11
   1.587500E+03  1.060090E-08  4.242428E-11
   1.592500E+03  1.056322E-08  4.234891E-11
   1.597500E+03  1.052913E-08  4.229890E-11
   1.602500E+03  1.046933E-08  4.216572E-11
   1.607500E+03  1.043368E-08  4.210088E-11
   1.612500E+03  1.040406E-08  4.203831E-11
   1.617500E+03  1.037130E-08  4.196437E-11
   1.622500E+03  1.028482E-08  4.180366E-11
   1.627500E+03  1.027020E-08  4.175731E-11
   1.632500E+03  1.021349E-08  4.164244E-11
   1.637500E+03  1.016800E-08  4.155146E-11
   1.642500E+03  1.013536E-08  4.148480E-11
   1.647500E+03  1.008219E-08  4.139129E-11
   1.652500E+03  1.006249E-08  4.133339E-11
   1.657500E+03  1.002054E-08  4.125092E-11
   1.662500E+03  9.979983E-09  4.118420E-11
   1.667500E+03  9.919440E-09  4.104765E-11
   1.672500E+03  9.874589E-09  4.094940E-11
   1.677500E+03  9.822044E-09  4.084776E-11
   1.682500E+03  9.814554E-09  4.084158E-11
   1.687500E+03  9.751038E-09  4.071338E-11
   1.692500E+03  9.691239E-09  4.057999E-11
   1.697500E+03  9.663827E-09  4.051724E-11
   1.702500E+03  9.650953E-09  4.049780E-11
   1.707500E+03  9.595210E-09  4.038886E-11
   1.712500E+03  9.577837E-09  4.035624E-11
   1.717500E+03  9.510390E-09  4.019687E-11
   1.722500E+03  9.483191E-09  4.014868E-11
   1.727500E+03  9.425312E-09  4.003640E-11
   1.732500E+03  9.429854E-09  4.004574E-11
   1.737500E+03  9.368295E-09  3.990226E-11
   1.742500E+03  9.328964E-09  3.983448E-11
   1.747500E+03  9.288347E-09  3.974171E-11
   1.752500E+03  9.232891E-09  3.962733E-11
   1.757500E+03  9.202718E-09  3.956595E-11
   1.762500E+03  9.176771E-09  3.951488E-11
   1.767500E+03  9.133427E-09  3.941226E-11
   1.772500E+03  9.115413E-09  3.938111E-11
   1.777500E+03  9.061933E-09  3.926064E-11
   1.782500E+03  9.038761E-09  3.921002E-11
   1.787500E+03  8.964311E-09  3.904814E-11
   1.792500E+03  8.951920E-09  3.903204E-11
   1.797500E+03  8.903027E-09  3.890800E-11
   1.802500E+03  8.867955E-09  3.883964E-11
   1.807500E+03  8.848937E-09  3.879735E-11
   1.812500E+03  8.807063E-09  3.870555E-11
   1.817500E+03  8.746021E-09  3.857495E-11
   1.822500E+03  8.751969E-09  3.859345E-11
   1.827500E+03  8.703752E-09  3.847646E-11
   1.832500E+03  8.685471E-09  3.843332E-11
   1.837500E+03  8.647270E-09  3.836266E-11
   1.842500E+03  8.574530E-09  3.818483E-11
   1.847500E+03  8.539105E-09  3.811946E-11
   1.852500E+03  8.536896E-09  3.812126E-11
   1.857500E+03  8.492071E-09  3.802939E-11
   1.862500E+03  8.501023E-09  3.803184E-11
   1.867500E+03  8.443754E-09  3.791611E-11
   1.872500E+03  8.402618E-09  3.781698E-11
   1.877500E+03  8.392929E-09  3.779948E-11
   1.882500E+03  8.332848E-09  3.766646E-11
   1.887500E+03  8.295807E-09  3.757872E-11
   1.892500E+03  8.263730E-09  3.750916E-11
   1.897500E+03  8.228146E-09  3.743400E-11
   1.902500E+03  8.214281E-09  3.739505E-11
   1.907500E+03  8.181688E-09  3.733662E-11
   1.912500E+03  8.160130E-09  3.728925E-11
   1.917500E+03  8.099345E-09  3.714787E-11
   1.922500E+03  8.064938E-09  3.705733E-11
   1.927500E+03  8.052849E-09  3.703840E-11
   1.932500E+03  8.000885E-09  3.691644E-11
   1.937500E+03  7.996130E-09  3.690915E-11
   1.942500E+03  7.932820E-09  3.675980E-11
   1.947500E+03  7.910784E-09  3.669950E-11
   1.952500E+03  7.877984E-09  3.664029E-11
   1.957500E+03  7.860759E-09  3.659758E-11
   1.962500E+03  7.855398E-09  3.658407E-11
   1.967500E+03  7.794715E-09  3.643419E-11
   1.972500E+03  7.768609E-09  3.637780E-11
   1.977500E+03  7.732605E-09  3.629564E-11
   1.982500E+03  7.718094E-09  3.626269E-11
   1.987500E+03  7.688069E-09  3.620121E-11
   1.992500E+03  7.649316E-09  3.612026E-11
   1.997500E+03  7.618374E-09  3.602841E-11
   2.002500E+03  7.585559E-09  3.595534E-11
   2.007500E+03  7.573625E-09  3.593412E-11
   2.012500E+03  7.538091E-09  3.585299E-11
   2.017500E+03  7.490954E-09  3.572530E-11
   2.022500E+03  7.498603E-09  3.575868E-11
   2.027500E+03  7.434876E-09  3.560331E-11
   2.032500E+03  7.420285E-09  3.556799E-11
   2.037500E+03  7.395874E-09  3.552315E-11
   2.042500E+03  7.355413E-09  3.541532E-11
   2.047500E+03  7.332226E-09  3.535903E-11
   2.052500E+03  7.318092E-09  3.531507E-11
   2.057500E+03  7.298403E-09  3.526901E-11
   2.062500E+03  7.261721E-09  3.519031E-11
   2.067500E+03  7.235317E-09  3.512877E-11
   2.072500E+03  7.196882E-09  3.503349E-11
   2.077500E+03  7.174920E-09  3.498362E-11
   2.082500E+03  7.170067E-09  3.497399E-11
   2.087500E+03  7.153884E-09  3.493517E-11
   2.092500E+03  7.099314E-09  3.480572E-11
   2.097500E+03  7.084500E-09  3.476786E-11
   2.102500E+03  7.049290E-09  3.468310E-11
   2.107500E+03  7.030286E-09  3.462807E-11
   2.112500E+03  6.993490E-09  3.453994E-11
   2.117500E+03  6.955780E-09  3.444810E-11
   2.122500E+03  6.949685E-09  3.442988E-11
   2.127500E+03  6.916280E-09  3.435606E-11
   2.132500E+03  6.891728E-09  3.428821E-11
   2.137500E+03  6.867641E-09  3.423986E-11
   2.142500E+03  6.823073E-09  3.413641E-11
   2.147500E+03  6.826733E-09  3.413544E-11
   2.152500E+03  6.794348E-09  3.406085E-11
   2.157500E+03  6.784096E-09  3.403549E-11
   2.162500E+03  6.732571E-09  3.391009E-11
   2.167500E+03  6.715555E-09  3.385514E-11
   2.172500E+03  6.690544E-09  3.379640E-11
   2.177500E+03  6.655014E-09  3.370687E-11
   2.182500E+03  6.669750E-09  3.375517E-11
   2.187500E+03  6.620487E-09  3.362617E-11
   2.192500E+03  6.598192E-09  3.358002E-11
   2.197500E+03  6.577642E-09  3.351197E-11
   2.202500E+03  6.531286E-09  3.341065E-11
   2.207500E+03  6.539853E-09  3.342211E-11
   2.212500E+03  6.493631E-09  3.330529E-11
   2.217500E+03  6.477725E-09  3.327159E-11
   2.222500E+03  6.435897E-09  3.316266E-11
   2.227500E+03  6.448996E-09  3.319688E-11
   2.232500E+03  6.405147E-09  3.307522E-11
   2.237500E+03  6.373479E-09  3.300890E-11
   2.242500E+03  6.369850E-09  3.298906E-11
   2.247500E+03  6.337493E-09  3.290146E-11
   2.252500E+03  6.297166E-09  3.280169E-11
   2.257500E+03  6.278239E-09  3.275864E-11
   2.262500E+03  6.259909E-09  3.270251E-11
   2.267500E+03  6.239607E-09  3.266275E-11
   2.272500E+03  6.228230E-09  3.263208E-11
   2.277500E+03  6.200941E-09  3.255895E-11
   2.282500E+03  6.162639E-09  3.246905E-11
   2.287500E+03  6.153708E-09  3.242212E-11
   2.292500E+03  6.113891E-09  3.234001E-11
   2.297500E+03  6.102569E-09  3.230415E-11
